시간 [s],진공압력 1 [bar],메인압력 1 [bar],제품압력 1 [bar],제품압력 2 [bar],제품압력 3 [bar],제품압력 4 [bar],제품압력 5 [bar],회전수 [rpm],온도 [℃],- [V],외부유량 [lpm],내부유량 [lpm
90.66,-0.18,1.64,1.62,0.01,0.03,0.11,0.17,1144.12,30.16,0.0,332.05,-2.89
90.67,-0.17,1.71,1.64,0.03,0.03,0.11,0.15,1151.23,30.16,0.0,332.01,-2.82
90.68,-0.16,1.8,1.66,0.04,0.03,0.11,0.13,1155.78,30.17,0.0,331.86,-2.67
90.69,-0.16,1.88,1.66,0.06,0.04,0.11,0.12,1157.45,30.18,0.0,331.66,-2.47
90.7,-0.17,1.93,1.66,0.08,0.05,0.11,0.11,1157.45,30.18,0.0,331.46,-2.27
90.71,-0.19,1.95,1.66,0.09,0.06,0.12,0.12,1158.41,30.18,0.0,331.35,-2.14
90.72,-0.21,1.93,1.65,0.1,0.07,0.13,0.13,1162.23,30.18,0.0,331.38,-2.11
90.73,-0.25,1.88,1.65,0.09,0.08,0.14,0.15,1167.41,30.17,0.0,331.49,-2.16
90.74,-0.27,1.82,1.65,0.08,0.09,0.15,0.16,1169.37,30.16,0.0,331.54,-2.27
90.75,-0.28,1.77,1.64,0.06,0.09,0.16,0.17,1164.87,30.15,0.0,331.44,-2.41
90.76,-0.27,1.73,1.64,0.04,0.08,0.18,0.18,1155.84,30.15,0.0,331.21,-2.54
90.77,-0.25,1.71,1.64,0.02,0.08,0.18,0.18,1148.01,30.14,0.0,331.0,-2.64
90.78,-0.21,1.72,1.65,0.01,0.06,0.17,0.17,1145.88,30.15,0.0,330.89,-2.69
90.79,-0.16,1.74,1.66,0.01,0.05,0.15,0.17,1149.11,30.15,0.0,330.94,-2.7
90.8,-0.13,1.77,1.67,0.01,0.03,0.13,0.16,1153.64,30.16,0.0,331.16,-2.65
90.81,-0.11,1.78,1.68,0.02,0.03,0.12,0.15,1155.71,30.17,0.0,331.54,-2.56
90.82,-0.11,1.77,1.69,0.03,0.03,0.11,0.14,1155.15,30.18,0.0,331.97,-2.45
90.83,-0.12,1.78,1.71,0.04,0.03,0.12,0.14,1155.24,30.18,0.0,332.29,-2.35
90.84,-0.15,1.8,1.72,0.06,0.04,0.13,0.14,1158.89,30.18,0.0,332.38,-2.28
90.85,-0.18,1.84,1.73,0.07,0.06,0.14,0.15,1166.03,30.18,0.0,332.27,-2.26
90.86,-0.22,1.88,1.73,0.08,0.08,0.16,0.15,1174.9,30.17,0.0,332.04,-2.31
90.87,-0.26,1.92,1.73,0.09,0.09,0.19,0.16,1183.69,30.17,0.0,331.74,-2.44
90.88,-0.3,1.94,1.73,0.08,0.1,0.22,0.17,1190.73,30.17,0.0,331.47,-2.6
90.89,-0.32,1.94,1.72,0.06,0.1,0.23,0.18,1194.85,30.17,0.0,331.22,-2.74
90.9,-0.32,1.91,1.72,0.05,0.1,0.23,0.18,1195.86,30.16,0.0,331.0,-2.82
90.91,-0.3,1.87,1.71,0.03,0.1,0.2,0.19,1194.82,30.16,0.0,330.84,-2.84
90.92,-0.26,1.82,1.71,0.01,0.09,0.17,0.19,1193.64,30.16,0.0,330.82,-2.77
90.93,-0.22,1.78,1.72,0.0,0.07,0.14,0.18,1193.75,30.16,0.0,330.97,-2.65
90.94,-0.19,1.75,1.73,-0.0,0.05,0.1,0.18,1194.71,30.16,0.0,331.24,-2.51
90.95,-0.16,1.76,1.74,0.0,0.03,0.08,0.17,1194.25,30.17,0.0,331.53,-2.41
90.96,-0.15,1.79,1.76,0.01,0.02,0.07,0.16,1190.62,30.18,0.0,331.75,-2.37
90.97,-0.14,1.85,1.78,0.02,0.03,0.07,0.14,1185.32,30.18,0.0,331.86,-2.4
90.98,-0.15,1.9,1.79,0.04,0.03,0.07,0.13,1182.64,30.19,0.0,331.84,-2.46
90.99,-0.17,1.92,1.8,0.06,0.05,0.07,0.13,1185.67,30.19,0.0,331.7,-2.5
91.0,-0.2,1.91,1.8,0.08,0.06,0.07,0.13,1193.5,30.19,0.0,331.49,-2.53
91.01,-0.23,1.88,1.8,0.09,0.07,0.08,0.14,1202.8,30.19,0.0,331.35,-2.57
91.02,-0.25,1.83,1.8,0.09,0.08,0.11,0.15,1210.61,30.18,0.0,331.35,-2.66
91.03,-0.28,1.78,1.8,0.09,0.09,0.14,0.16,1215.29,30.17,0.0,331.45,-2.78
91.04,-0.29,1.74,1.8,0.08,0.09,0.17,0.18,1216.3,30.16,0.0,331.57,-2.84
91.05,-0.29,1.73,1.79,0.06,0.08,0.19,0.18,1214.15,30.16,0.0,331.63,-2.81
91.06,-0.27,1.73,1.78,0.04,0.07,0.19,0.19,1210.39,30.16,0.0,331.59,-2.7
91.07,-0.25,1.74,1.78,0.03,0.06,0.18,0.19,1207.02,30.17,0.0,331.45,-2.54
91.08,-0.22,1.75,1.79,0.02,0.05,0.16,0.18,1205.34,30.17,0.0,331.21,-2.38
91.09,-0.18,1.75,1.8,0.01,0.04,0.14,0.18,1204.82,30.18,0.0,330.95,-2.25
91.1,-0.16,1.77,1.81,0.01,0.03,0.13,0.17,1203.08,30.18,0.0,330.78,-2.21
91.11,-0.14,1.81,1.83,0.01,0.03,0.12,0.17,1198.27,30.18,0.0,330.75,-2.25
91.12,-0.13,1.87,1.85,0.02,0.03,0.12,0.16,1191.83,30.18,0.0,330.87,-2.36
91.13,-0.14,1.92,1.87,0.04,0.04,0.13,0.15,1187.87,30.17,0.0,331.13,-2.51
91.14,-0.16,1.93,1.88,0.05,0.05,0.14,0.14,1189.39,30.17,0.0,331.51,-2.69
91.15,-0.19,1.91,1.88,0.07,0.06,0.15,0.14,1195.63,30.17,0.0,331.87,-2.85
91.16,-0.22,1.85,1.88,0.08,0.08,0.16,0.14,1203.53,30.17,0.0,332.03,-2.94
91.17,-0.25,1.78,1.87,0.09,0.09,0.16,0.14,1210.31,30.17,0.0,331.87,-2.93
91.18,-0.27,1.72,1.87,0.08,0.1,0.16,0.15,1214.54,30.17,0.0,331.47,-2.84
91.19,-0.28,1.68,1.86,0.07,0.1,0.16,0.16,1215.99,30.18,0.0,331.08,-2.7
91.2,-0.27,1.67,1.85,0.06,0.09,0.17,0.18,1215.28,30.18,0.0,330.87,-2.56
91.21,-0.25,1.7,1.84,0.04,0.09,0.17,0.19,1213.41,30.18,0.0,330.85,-2.43
91.22,-0.23,1.73,1.84,0.03,0.07,0.17,0.2,1211.3,30.18,0.0,330.93,-2.34
91.23,-0.19,1.76,1.84,0.02,0.06,0.16,0.2,1209.54,30.18,0.0,330.98,-2.29
91.24,-0.16,1.79,1.85,0.01,0.05,0.13,0.2,1207.79,30.18,0.0,330.97,-2.28
91.25,-0.14,1.83,1.86,0.01,0.04,0.1,0.19,1204.4,30.19,0.0,330.96,-2.31
91.26,-0.12,1.91,1.88,0.02,0.04,0.08,0.17,1198.2,30.19,0.0,331.03,-2.38
91.27,-0.11,1.99,1.89,0.03,0.04,0.06,0.15,1190.95,30.19,0.0,331.15,-2.49
91.28,-0.12,2.04,1.9,0.04,0.04,0.05,0.14,1186.77,30.18,0.0,331.29,-2.6
91.29,-0.14,2.03,1.91,0.06,0.05,0.06,0.13,1188.47,30.18,0.0,331.4,-2.71
91.3,-0.16,1.97,1.91,0.08,0.06,0.08,0.13,1195.07,30.17,0.0,331.43,-2.79
91.31,-0.19,1.89,1.91,0.09,0.07,0.11,0.14,1203.32,30.16,0.0,331.36,-2.78
91.32,-0.22,1.82,1.9,0.09,0.08,0.14,0.15,1210.36,30.16,0.0,331.18,-2.67
91.33,-0.24,1.77,1.89,0.09,0.09,0.16,0.16,1214.7,30.17,0.0,330.92,-2.49
91.34,-0.25,1.76,1.88,0.07,0.1,0.18,0.17,1216.16,30.17,0.0,330.64,-2.33
91.35,-0.25,1.77,1.87,0.05,0.1,0.19,0.19,1215.39,30.17,0.0,330.38,-2.24
91.36,-0.24,1.79,1.86,0.03,0.09,0.2,0.2,1213.45,30.17,0.0,330.19,-2.23
91.37,-0.22,1.81,1.86,0.02,0.08,0.19,0.2,1211.29,30.16,0.0,330.17,-2.3
91.38,-0.19,1.82,1.85,0.01,0.07,0.18,0.2,1209.51,30.15,0.0,330.38,-2.4
91.39,-0.16,1.83,1.86,0.01,0.05,0.15,0.19,1207.77,30.13,0.0,330.73,-2.53
91.4,-0.13,1.86,1.86,0.01,0.03,0.13,0.18,1204.4,30.13,0.0,331.09,-2.64
91.41,-0.11,1.92,1.88,0.02,0.02,0.1,0.16,1198.22,30.12,0.0,331.37,-2.72
91.42,-0.1,2.0,1.89,0.04,0.02,0.08,0.14,1190.98,30.12,0.0,331.5,-2.76
91.43,-0.1,2.06,1.9,0.06,0.03,0.08,0.13,1186.82,30.12,0.0,331.49,-2.73
91.44,-0.12,2.05,1.91,0.08,0.04,0.09,0.12,1188.55,30.12,0.0,331.34,-2.62
91.45,-0.15,1.98,1.91,0.1,0.05,0.11,0.12,1195.19,30.13,0.0,331.15,-2.45
91.46,-0.17,1.91,1.91,0.11,0.06,0.13,0.13,1203.51,30.13,0.0,331.04,-2.28
91.47,-0.2,1.85,1.9,0.11,0.07,0.14,0.15,1210.59,30.12,0.0,331.1,-2.14
91.48,-0.22,1.82,1.89,0.11,0.09,0.15,0.16,1214.97,30.12,0.0,331.26,-2.07
91.49,-0.23,1.82,1.88,0.09,0.09,0.14,0.18,1216.44,30.11,0.0,331.37,-2.08
91.5,-0.23,1.83,1.88,0.06,0.09,0.13,0.19,1215.66,30.11,0.0,331.29,-2.16
91.51,-0.22,1.84,1.87,0.04,0.08,0.12,0.2,1213.69,30.11,0.0,331.05,-2.29
91.52,-0.2,1.86,1.86,0.01,0.07,0.12,0.2,1211.51,30.11,0.0,330.76,-2.45
91.53,-0.17,1.89,1.86,0.0,0.05,0.12,0.2,1209.74,30.11,0.0,330.55,-2.62
91.54,-0.14,1.92,1.87,-0.0,0.04,0.13,0.19,1208.04,30.12,0.0,330.47,-2.77
91.55,-0.12,1.96,1.88,-0.0,0.02,0.12,0.18,1204.69,30.12,0.0,330.54,-2.82
91.56,-0.1,2.01,1.89,0.01,0.02,0.11,0.16,1198.49,30.12,0.0,330.75,-2.74
91.57,-0.1,2.07,1.9,0.02,0.02,0.08,0.14,1191.2,30.13,0.0,331.02,-2.55
91.58,-0.1,2.09,1.91,0.03,0.02,0.06,0.13,1186.95,30.13,0.0,331.25,-2.35
91.59,-0.12,2.08,1.91,0.05,0.04,0.05,0.12,1188.56,30.14,0.0,331.39,-2.2
91.6,-0.15,2.03,1.92,0.07,0.05,0.06,0.13,1195.09,30.14,0.0,331.43,-2.11
91.61,-0.17,1.97,1.91,0.08,0.06,0.09,0.14,1203.31,30.15,0.0,331.45,-2.1
91.62,-0.2,1.91,1.91,0.09,0.07,0.12,0.15,1210.35,30.15,0.0,331.49,-2.15
91.63,-0.22,1.87,1.91,0.09,0.08,0.15,0.15,1214.71,30.14,0.0,331.59,-2.23
91.64,-0.22,1.86,1.9,0.07,0.09,0.17,0.16,1216.17,30.14,0.0,331.71,-2.35
91.65,-0.22,1.87,1.88,0.05,0.08,0.18,0.16,1215.37,30.13,0.0,331.85,-2.5
91.66,-0.22,1.9,1.87,0.03,0.08,0.17,0.17,1213.36,30.13,0.0,331.96,-2.65
91.67,-0.2,1.93,1.86,0.01,0.07,0.15,0.17,1211.14,30.13,0.0,331.95,-2.76
91.68,-0.18,1.97,1.86,0.0,0.05,0.13,0.17,1209.34,30.14,0.0,331.76,-2.81
91.69,-0.15,2.02,1.87,-0.0,0.04,0.1,0.16,1207.62,30.14,0.0,331.46,-2.8
91.7,-0.13,2.06,1.88,-0.0,0.02,0.08,0.15,1204.31,30.15,0.0,331.18,-2.71
91.71,-0.12,2.11,1.89,0.0,0.02,0.06,0.14,1198.22,30.15,0.0,331.01,-2.57
91.72,-0.11,2.15,1.9,0.02,0.02,0.05,0.13,1191.08,30.14,0.0,330.99,-2.41
91.73,-0.12,2.16,1.91,0.03,0.02,0.04,0.12,1186.98,30.13,0.0,331.07,-2.31
91.74,-0.14,2.12,1.92,0.05,0.04,0.04,0.11,1188.74,30.13,0.0,331.21,-2.3
91.75,-0.16,2.04,1.92,0.07,0.05,0.03,0.11,1195.36,30.13,0.0,331.36,-2.37
91.76,-0.18,1.96,1.92,0.09,0.06,0.04,0.11,1203.63,30.13,0.0,331.5,-2.49
91.77,-0.2,1.89,1.92,0.09,0.07,0.05,0.12,1210.67,30.13,0.0,331.6,-2.63
91.78,-0.21,1.85,1.91,0.09,0.08,0.07,0.13,1215.01,30.14,0.0,331.64,-2.76
91.79,-0.21,1.84,1.9,0.08,0.08,0.09,0.14,1216.46,30.15,0.0,331.52,-2.84
91.8,-0.2,1.86,1.89,0.06,0.08,0.1,0.15,1215.65,30.15,0.0,331.2,-2.87
91.81,-0.19,1.89,1.88,0.04,0.08,0.1,0.17,1213.68,30.16,0.0,330.78,-2.86
91.82,-0.18,1.93,1.87,0.02,0.07,0.1,0.17,1211.5,30.16,0.0,330.4,-2.79
91.83,-0.16,1.96,1.86,0.01,0.06,0.09,0.18,1209.75,30.16,0.0,330.19,-2.67
91.84,-0.15,1.98,1.87,0.0,0.04,0.09,0.17,1208.06,30.16,0.0,330.16,-2.54
91.85,-0.13,2.0,1.88,0.0,0.04,0.08,0.17,1204.76,30.15,0.0,330.3,-2.43
91.86,-0.13,2.04,1.89,0.01,0.03,0.06,0.15,1198.62,30.15,0.0,330.54,-2.39
91.87,-0.13,2.08,1.91,0.02,0.04,0.04,0.13,1191.28,30.14,0.0,330.81,-2.41
91.88,-0.13,2.09,1.92,0.04,0.04,0.02,0.12,1186.54,30.14,0.0,331.03,-2.46
91.89,-0.15,2.04,1.93,0.06,0.06,0.02,0.11,1187.03,30.13,0.0,331.18,-2.52
91.9,-0.17,1.94,1.93,0.08,0.07,0.03,0.1,1192.21,30.13,0.0,331.24,-2.58
91.91,-0.19,1.83,1.92,0.09,0.08,0.05,0.11,1199.8,30.13,0.0,331.2,-2.65
91.92,-0.21,1.73,1.92,0.09,0.09,0.09,0.11,1207.57,30.13,0.0,331.06,-2.75
91.93,-0.22,1.66,1.9,0.09,0.09,0.13,0.12,1213.71,30.13,0.0,330.85,-2.86
91.94,-0.22,1.65,1.89,0.07,0.09,0.16,0.13,1217.08,30.13,0.0,330.55,-2.91
91.95,-0.21,1.71,1.89,0.05,0.09,0.19,0.14,1217.56,30.14,0.0,330.14,-2.87
91.96,-0.2,1.8,1.88,0.03,0.09,0.19,0.16,1216.04,30.14,0.0,329.74,-2.74
91.97,-0.19,1.89,1.88,0.02,0.08,0.18,0.16,1213.79,30.13,0.0,329.52,-2.57
91.98,-0.18,1.96,1.88,0.01,0.06,0.16,0.17,1211.85,30.13,0.0,329.6,-2.39
91.99,-0.17,1.99,1.88,0.0,0.05,0.13,0.17,1210.04,30.12,0.0,329.92,-2.25
92.0,-0.16,2.01,1.89,0.0,0.04,0.1,0.17,1206.6,30.12,0.0,330.34,-2.18
92.01,-0.15,2.03,1.9,0.01,0.03,0.07,0.15,1200.21,30.12,0.0,330.73,-2.21
92.02,-0.15,2.06,1.91,0.02,0.03,0.04,0.14,1192.37,30.13,0.0,331.01,-2.31
92.03,-0.15,2.06,1.92,0.03,0.04,0.02,0.12,1186.6,30.14,0.0,331.19,-2.46
92.04,-0.17,2.01,1.92,0.05,0.05,0.02,0.1,1185.4,30.14,0.0,331.31,-2.62
92.05,-0.18,1.92,1.93,0.07,0.06,0.02,0.1,1188.67,30.14,0.0,331.39,-2.75
92.06,-0.2,1.82,1.92,0.08,0.07,0.04,0.1,1195.02,30.14,0.0,331.36,-2.81
92.07,-0.21,1.73,1.92,0.09,0.08,0.08,0.11,1202.78,30.14,0.0,331.21,-2.76
92.08,-0.22,1.68,1.91,0.08,0.09,0.12,0.13,1209.88,30.14,0.0,330.99,-2.64
92.09,-0.21,1.67,1.9,0.06,0.09,0.16,0.15,1214.27,30.14,0.0,330.86,-2.48
92.1,-0.21,1.73,1.89,0.05,0.09,0.18,0.18,1215.09,30.14,0.0,330.9,-2.33
92.11,-0.2,1.83,1.88,0.03,0.08,0.18,0.2,1213.17,30.13,0.0,331.09,-2.2
92.12,-0.19,1.92,1.88,0.01,0.06,0.16,0.21,1210.35,30.13,0.0,331.29,-2.13
92.13,-0.18,1.99,1.87,0.0,0.05,0.13,0.19,1208.16,30.13,0.0,331.4,-2.12
92.14,-0.17,2.03,1.88,-0.0,0.03,0.1,0.17,1206.58,30.14,0.0,331.4,-2.17
92.15,-0.16,2.05,1.88,0.0,0.03,0.07,0.14,1203.67,30.14,0.0,331.34,-2.28
92.16,-0.16,2.07,1.9,0.01,0.03,0.05,0.12,1197.87,30.14,0.0,331.27,-2.44
92.17,-0.15,2.1,1.91,0.02,0.03,0.03,0.11,1190.54,30.15,0.0,331.23,-2.61
92.18,-0.16,2.11,1.92,0.04,0.04,0.02,0.1,1185.19,30.15,0.0,331.22,-2.75
92.19,-0.17,2.09,1.92,0.06,0.06,0.02,0.1,1184.35,30.15,0.0,331.24,-2.84
92.2,-0.18,2.03,1.93,0.08,0.07,0.03,0.1,1187.93,30.15,0.0,331.27,-2.87
92.21,-0.19,1.97,1.93,0.09,0.08,0.05,0.1,1194.56,30.15,0.0,331.3,-2.82
92.22,-0.2,1.91,1.92,0.1,0.09,0.08,0.1,1202.54,30.15,0.0,331.34,-2.69
92.23,-0.2,1.88,1.92,0.1,0.1,0.11,0.12,1209.82,30.14,0.0,331.37,-2.53
92.24,-0.2,1.88,1.9,0.09,0.1,0.14,0.13,1214.33,30.14,0.0,331.36,-2.4
92.25,-0.19,1.92,1.89,0.07,0.09,0.16,0.15,1215.24,30.14,0.0,331.3,-2.33
92.26,-0.18,1.97,1.88,0.05,0.09,0.16,0.17,1213.38,30.14,0.0,331.21,-2.34
92.27,-0.18,2.03,1.87,0.03,0.07,0.16,0.17,1210.57,30.14,0.0,331.17,-2.41
92.28,-0.17,2.07,1.87,0.02,0.06,0.14,0.17,1208.37,30.15,0.0,331.22,-2.53
92.29,-0.16,2.09,1.87,0.01,0.04,0.12,0.15,1206.74,30.15,0.0,331.35,-2.66
92.3,-0.16,2.1,1.88,0.0,0.03,0.08,0.13,1203.77,30.15,0.0,331.48,-2.77
92.31,-0.15,2.12,1.89,0.01,0.03,0.05,0.12,1197.91,30.15,0.0,331.56,-2.84
92.32,-0.15,2.14,1.9,0.02,0.03,0.01,0.1,1190.52,30.14,0.0,331.56,-2.86
92.33,-0.15,2.13,1.92,0.03,0.04,-0.02,0.08,1185.12,30.14,0.0,331.45,-2.82
92.34,-0.16,2.09,1.93,0.05,0.05,-0.02,0.07,1184.21,30.14,0.0,331.25,-2.72
92.35,-0.17,2.03,1.94,0.07,0.06,-0.0,0.07,1187.72,30.14,0.0,331.01,-2.57
92.36,-0.19,1.97,1.94,0.08,0.07,0.02,0.07,1194.28,30.14,0.0,330.86,-2.45
92.37,-0.2,1.92,1.93,0.09,0.09,0.06,0.07,1202.23,30.14,0.0,330.88,-2.37
92.38,-0.2,1.9,1.92,0.09,0.1,0.08,0.08,1209.48,30.13,0.0,330.99,-2.37
92.39,-0.2,1.9,1.91,0.07,0.1,0.1,0.09,1213.99,30.14,0.0,331.0,-2.43
92.4,-0.19,1.94,1.9,0.06,0.1,0.11,0.1,1214.91,30.14,0.0,330.79,-2.56
92.41,-0.19,1.99,1.88,0.04,0.09,0.11,0.12,1213.08,30.14,0.0,330.39,-2.72
92.42,-0.19,2.03,1.88,0.03,0.08,0.1,0.13,1210.31,30.15,0.0,329.97,-2.86
92.43,-0.18,2.06,1.88,0.02,0.06,0.08,0.13,1208.16,30.15,0.0,329.66,-2.94
92.44,-0.17,2.06,1.88,0.01,0.04,0.07,0.12,1206.59,30.16,0.0,329.54,-2.96
92.45,-0.16,2.05,1.88,0.01,0.03,0.06,0.11,1203.67,30.16,0.0,329.58,-2.92
92.46,-0.14,2.03,1.89,0.01,0.02,0.05,0.1,1197.87,30.15,0.0,329.75,-2.81
92.47,-0.14,2.01,1.91,0.02,0.03,0.03,0.09,1190.66,30.14,0.0,329.97,-2.68
92.48,-0.13,1.98,1.91,0.04,0.04,0.02,0.08,1185.93,30.14,0.0,330.2,-2.56
92.49,-0.14,1.95,1.92,0.06,0.05,0.01,0.08,1186.42,30.14,0.0,330.39,-2.45
92.5,-0.16,1.91,1.93,0.08,0.07,0.0,0.07,1191.63,30.14,0.0,330.53,-2.37
92.51,-0.17,1.88,1.92,0.09,0.08,0.01,0.07,1199.29,30.15,0.0,330.59,-2.35
92.52,-0.18,1.84,1.92,0.09,0.1,0.03,0.08,1207.12,30.15,0.0,330.59,-2.39
92.53,-0.19,1.82,1.91,0.09,0.11,0.06,0.09,1213.2,30.16,0.0,330.54,-2.46
92.54,-0.18,1.82,1.9,0.07,0.12,0.09,0.11,1216.12,30.16,0.0,330.47,-2.57
92.55,-0.19,1.86,1.89,0.05,0.12,0.09,0.12,1215.58,30.16,0.0,330.39,-2.71
92.56,-0.19,1.92,1.88,0.03,0.11,0.09,0.14,1212.69,30.16,0.0,330.31,-2.84
92.57,-0.19,1.97,1.87,0.02,0.1,0.07,0.15,1209.16,30.16,0.0,330.24,-2.9
92.58,-0.18,2.01,1.87,0.01,0.08,0.06,0.14,1206.32,30.15,0.0,330.19,-2.88
92.59,-0.17,2.02,1.88,0.0,0.07,0.05,0.13,1204.14,30.15,0.0,330.16,-2.79
92.6,-0.16,2.01,1.88,0.0,0.05,0.05,0.12,1200.82,30.15,0.0,330.2,-2.65
92.61,-0.14,1.99,1.89,0.01,0.05,0.05,0.11,1194.96,30.15,0.0,330.31,-2.51
92.62,-0.13,1.98,1.91,0.02,0.05,0.06,0.11,1188.0,30.16,0.0,330.48,-2.39
92.63,-0.12,1.96,1.92,0.03,0.06,0.06,0.1,1183.76,30.16,0.0,330.65,-2.3
92.64,-0.13,1.95,1.93,0.05,0.06,0.07,0.11,1184.87,30.16,0.0,330.78,-2.24
92.65,-0.15,1.93,1.94,0.07,0.06,0.07,0.11,1190.7,30.16,0.0,330.84,-2.21
92.66,-0.17,1.91,1.94,0.08,0.07,0.08,0.11,1198.85,30.16,0.0,330.79,-2.24
92.67,-0.18,1.88,1.94,0.09,0.07,0.08,0.11,1207.01,30.16,0.0,330.64,-2.36
92.68,-0.18,1.85,1.93,0.09,0.08,0.09,0.11,1213.26,30.16,0.0,330.45,-2.52
92.69,-0.18,1.84,1.92,0.07,0.08,0.1,0.11,1216.21,30.16,0.0,330.33,-2.66
92.7,-0.18,1.86,1.9,0.06,0.08,0.11,0.12,1215.62,30.15,0.0,330.35,-2.73
92.71,-0.19,1.9,1.89,0.04,0.08,0.12,0.14,1212.65,30.15,0.0,330.51,-2.72
92.72,-0.19,1.95,1.88,0.03,0.07,0.12,0.15,1209.06,30.15,0.0,330.76,-2.65
92.73,-0.18,1.98,1.87,0.02,0.06,0.12,0.16,1206.21,30.15,0.0,331.07,-2.52
92.74,-0.17,1.98,1.87,0.01,0.04,0.1,0.16,1204.05,30.15,0.0,331.35,-2.39
92.75,-0.16,1.97,1.88,0.02,0.03,0.09,0.16,1200.79,30.15,0.0,331.57,-2.28
92.76,-0.15,1.95,1.89,0.03,0.02,0.06,0.15,1194.97,30.15,0.0,331.68,-2.22
92.77,-0.13,1.93,1.91,0.04,0.03,0.04,0.14,1188.06,30.16,0.0,331.7,-2.22
92.78,-0.13,1.92,1.92,0.06,0.04,0.02,0.13,1183.87,30.16,0.0,331.68,-2.28
92.79,-0.13,1.93,1.93,0.08,0.05,0.02,0.12,1185.08,30.16,0.0,331.63,-2.4
92.8,-0.15,1.94,1.94,0.09,0.06,0.03,0.12,1190.97,30.16,0.0,331.57,-2.55
92.81,-0.17,1.93,1.93,0.1,0.07,0.04,0.11,1198.89,30.15,0.0,331.49,-2.68
92.82,-0.18,1.91,1.92,0.1,0.08,0.07,0.12,1206.38,30.15,0.0,331.38,-2.76
92.83,-0.18,1.87,1.91,0.09,0.08,0.09,0.13,1211.67,30.15,0.0,331.24,-2.78
92.84,-0.18,1.84,1.89,0.07,0.09,0.1,0.14,1213.76,30.14,0.0,331.08,-2.72
92.85,-0.19,1.85,1.87,0.05,0.09,0.11,0.16,1212.69,30.14,0.0,330.91,-2.6
92.86,-0.19,1.88,1.86,0.03,0.08,0.11,0.17,1209.68,30.15,0.0,330.76,-2.44
92.87,-0.2,1.93,1.85,0.02,0.07,0.11,0.17,1206.45,30.15,0.0,330.65,-2.29
92.88,-0.2,1.96,1.86,0.01,0.06,0.09,0.17,1204.26,30.15,0.0,330.6,-2.17
92.89,-0.19,1.99,1.86,0.0,0.04,0.08,0.17,1202.87,30.16,0.0,330.6,-2.11
92.9,-0.18,2.0,1.88,0.0,0.02,0.07,0.17,1200.36,30.16,0.0,330.67,-2.12
92.91,-0.16,2.0,1.89,0.01,0.02,0.06,0.15,1195.22,30.16,0.0,330.82,-2.18
92.92,-0.15,1.99,1.91,0.02,0.02,0.05,0.14,1188.71,30.16,0.0,330.98,-2.29
92.93,-0.14,1.99,1.92,0.04,0.03,0.05,0.12,1184.22,30.15,0.0,331.1,-2.43
92.94,-0.14,2.0,1.93,0.06,0.04,0.06,0.1,1184.18,30.15,0.0,331.11,-2.61
92.95,-0.16,2.01,1.93,0.08,0.06,0.07,0.08,1188.3,30.15,0.0,331.06,-2.78
92.96,-0.17,2.0,1.93,0.09,0.07,0.09,0.07,1194.83,30.15,0.0,331.03,-2.87
92.97,-0.18,1.98,1.92,0.1,0.08,0.1,0.07,1201.89,30.15,0.0,331.12,-2.84
92.98,-0.18,1.95,1.92,0.09,0.09,0.1,0.08,1207.81,30.15,0.0,331.28,-2.72
92.99,-0.18,1.92,1.91,0.08,0.09,0.1,0.09,1211.44,30.15,0.0,331.41,-2.57
93.0,-0.19,1.91,1.9,0.06,0.09,0.1,0.11,1212.52,30.15,0.0,331.39,-2.44
93.01,-0.19,1.93,1.89,0.04,0.08,0.11,0.13,1211.67,30.15,0.0,331.22,-2.37
93.02,-0.19,1.95,1.89,0.02,0.07,0.11,0.14,1209.84,30.15,0.0,330.94,-2.36
93.03,-0.19,1.95,1.89,0.01,0.05,0.1,0.15,1207.87,30.16,0.0,330.61,-2.39
93.04,-0.18,1.95,1.9,0.0,0.03,0.08,0.15,1205.72,30.16,0.0,330.31,-2.45
93.05,-0.17,1.95,1.91,0.0,0.02,0.07,0.14,1202.03,30.16,0.0,330.11,-2.54
93.06,-0.16,1.96,1.92,0.01,0.02,0.05,0.12,1195.79,30.16,0.0,330.08,-2.66
93.07,-0.15,1.99,1.93,0.02,0.03,0.03,0.1,1188.52,30.16,0.0,330.18,-2.79
93.08,-0.14,2.03,1.94,0.04,0.04,0.02,0.08,1183.71,30.16,0.0,330.37,-2.86
93.09,-0.15,2.07,1.95,0.05,0.05,0.02,0.08,1183.69,30.16,0.0,330.6,-2.85
93.1,-0.16,2.1,1.95,0.07,0.06,0.03,0.08,1188.02,30.16,0.0,330.8,-2.76
93.11,-0.18,2.09,1.95,0.09,0.07,0.04,0.09,1194.8,30.16,0.0,330.92,-2.63
93.12,-0.18,2.05,1.94,0.09,0.08,0.06,0.1,1202.04,30.17,0.0,330.94,-2.5
93.13,-0.18,1.97,1.94,0.09,0.09,0.08,0.11,1208.06,30.17,0.0,330.86,-2.4
93.14,-0.17,1.9,1.92,0.08,0.09,0.1,0.11,1211.74,30.17,0.0,330.72,-2.35
93.15,-0.18,1.86,1.91,0.06,0.09,0.11,0.13,1212.87,30.17,0.0,330.56,-2.38
93.16,-0.18,1.85,1.9,0.04,0.08,0.12,0.14,1212.04,30.17,0.0,330.41,-2.46
93.17,-0.19,1.86,1.89,0.03,0.07,0.12,0.16,1210.07,30.17,0.0,330.36,-2.58
93.18,-0.19,1.88,1.88,0.02,0.05,0.11,0.17,1207.69,30.17,0.0,330.46,-2.72
93.19,-0.18,1.89,1.88,0.01,0.04,0.1,0.17,1205.0,30.16,0.0,330.64,-2.84
93.2,-0.17,1.9,1.89,0.01,0.03,0.08,0.16,1200.86,30.16,0.0,330.82,-2.91
93.21,-0.16,1.89,1.9,0.01,0.02,0.07,0.14,1194.46,30.16,0.0,330.93,-2.9
93.22,-0.15,1.88,1.91,0.03,0.03,0.07,0.11,1187.33,30.17,0.0,330.96,-2.82
93.23,-0.14,1.88,1.93,0.04,0.03,0.07,0.09,1182.84,30.17,0.0,330.99,-2.71
93.24,-0.15,1.92,1.93,0.06,0.04,0.07,0.07,1183.21,30.17,0.0,331.08,-2.57
93.25,-0.16,1.96,1.94,0.08,0.05,0.08,0.06,1187.89,30.17,0.0,331.19,-2.44
93.26,-0.17,1.99,1.94,0.09,0.07,0.08,0.06,1194.91,30.17,0.0,331.24,-2.35
93.27,-0.18,1.97,1.93,0.09,0.08,0.09,0.07,1202.28,30.16,0.0,331.13,-2.32
93.28,-0.18,1.91,1.92,0.09,0.09,0.09,0.09,1208.33,30.16,0.0,330.9,-2.33
93.29,-0.17,1.86,1.9,0.08,0.09,0.1,0.1,1211.95,30.16,0.0,330.6,-2.38
93.3,-0.17,1.83,1.89,0.06,0.09,0.11,0.12,1212.98,30.16,0.0,330.31,-2.48
93.31,-0.18,1.84,1.87,0.04,0.08,0.11,0.13,1212.14,30.16,0.0,330.1,-2.58
93.32,-0.18,1.87,1.86,0.03,0.07,0.11,0.13,1210.63,30.16,0.0,330.05,-2.67
93.33,-0.19,1.88,1.86,0.02,0.05,0.1,0.13,1209.4,30.16,0.0,330.2,-2.74
93.34,-0.18,1.88,1.86,0.01,0.04,0.09,0.13,1208.18,30.16,0.0,330.48,-2.77
93.35,-0.18,1.87,1.87,0.02,0.03,0.07,0.12,1205.04,30.16,0.0,330.77,-2.74
93.36,-0.17,1.86,1.89,0.03,0.03,0.05,0.12,1198.58,30.16,0.0,330.98,-2.65
93.37,-0.16,1.85,1.91,0.04,0.03,0.03,0.11,1190.47,30.17,0.0,331.1,-2.52
93.38,-0.16,1.87,1.92,0.05,0.04,0.02,0.1,1184.62,30.17,0.0,331.12,-2.39
93.39,-0.16,1.9,1.93,0.07,0.05,0.02,0.09,1183.75,30.17,0.0,331.09,-2.28
93.4,-0.17,1.95,1.94,0.09,0.06,0.03,0.08,1187.59,30.17,0.0,331.05,-2.2
