시간 [s],진공압력 1 [bar],메인압력 1 [bar],제품압력 1 [bar],제품압력 2 [bar],제품압력 3 [bar],제품압력 4 [bar],제품압력 5 [bar],회전수 [rpm],온도 [℃],- [V],외부유량 [lpm],내부유량 [lpm
187.31,-0.34,15.01,15.09,0.08,-0.01,-0.15,0.27,1427.06,29.69,0.0,1491.06,-2.19
187.32,-0.41,15.01,15.12,0.1,0.0,-0.06,0.2,1437.03,29.7,0.0,1491.16,-2.19
187.33,-0.46,15.08,15.16,0.11,0.01,0.06,0.15,1444.89,29.7,0.0,1491.09,-2.28
187.34,-0.48,15.18,15.21,0.11,0.02,0.16,0.11,1449.48,29.7,0.0,1490.97,-2.41
187.35,-0.45,15.26,15.25,0.1,0.02,0.18,0.09,1450.79,29.71,0.0,1490.87,-2.58
187.36,-0.39,15.31,15.28,0.09,0.02,0.14,0.07,1449.27,29.71,0.0,1490.86,-2.73
187.37,-0.31,15.32,15.3,0.08,0.02,0.09,0.06,1444.85,29.71,0.0,1490.91,-2.82
187.38,-0.22,15.29,15.32,0.06,0.02,0.09,0.07,1437.76,29.71,0.0,1491.0,-2.82
187.39,-0.15,15.24,15.33,0.05,0.01,0.13,0.09,1430.41,29.71,0.0,1491.09,-2.75
187.4,-0.1,15.2,15.34,0.04,0.0,0.17,0.13,1427.08,29.7,0.0,1491.12,-2.62
187.41,-0.07,15.19,15.37,0.04,-0.01,0.16,0.19,1430.36,29.69,0.0,1491.09,-2.47
187.42,-0.06,15.21,15.4,0.03,-0.03,0.1,0.27,1438.88,29.68,0.0,1491.01,-2.32
187.43,-0.06,15.24,15.44,0.04,-0.04,0.02,0.35,1449.14,29.68,0.0,1490.94,-2.21
187.44,-0.06,15.27,15.49,0.04,-0.04,-0.06,0.41,1458.11,29.68,0.0,1490.91,-2.16
187.45,-0.07,15.3,15.53,0.05,-0.03,-0.11,0.44,1463.73,29.69,0.0,1490.95,-2.18
187.46,-0.09,15.34,15.57,0.07,-0.02,-0.14,0.43,1464.56,29.69,0.0,1491.03,-2.26
187.47,-0.14,15.43,15.61,0.08,-0.01,-0.16,0.36,1460.61,29.69,0.0,1491.16,-2.39
187.48,-0.21,15.53,15.64,0.09,0.01,-0.16,0.26,1454.44,29.7,0.0,1491.28,-2.56
187.49,-0.29,15.63,15.66,0.09,0.02,-0.12,0.2,1450.43,29.7,0.0,1491.3,-2.7
187.5,-0.36,15.7,15.68,0.09,0.02,-0.02,0.22,1451.5,29.71,0.0,1491.16,-2.79
187.51,-0.42,15.74,15.69,0.08,0.02,0.09,0.29,1457.16,29.71,0.0,1490.9,-2.82
187.52,-0.45,15.75,15.71,0.07,0.02,0.17,0.37,1465.02,29.72,0.0,1490.59,-2.78
187.53,-0.45,15.74,15.74,0.05,0.01,0.17,0.39,1472.75,29.72,0.0,1490.31,-2.68
187.54,-0.43,15.73,15.77,0.02,0.01,0.1,0.36,1478.74,29.72,0.0,1490.09,-2.55
187.55,-0.35,15.74,15.81,0.01,0.0,0.01,0.28,1482.38,29.72,0.0,1489.97,-2.41
187.56,-0.21,15.77,15.85,0.0,-0.01,-0.07,0.18,1483.9,29.72,0.0,1489.94,-2.3
187.57,-0.04,15.83,15.89,0.01,-0.01,-0.11,0.09,1483.46,29.72,0.0,1489.99,-2.23
187.58,0.09,15.89,15.94,0.02,-0.02,-0.1,0.03,1480.41,29.71,0.0,1490.12,-2.22
187.59,0.15,15.93,15.99,0.04,-0.02,-0.04,0.02,1474.5,29.7,0.0,1490.32,-2.27
187.6,0.14,15.93,16.04,0.05,-0.01,0.05,0.04,1468.02,29.69,0.0,1490.53,-2.36
187.61,0.07,15.9,16.1,0.07,0.0,0.12,0.1,1465.54,29.68,0.0,1490.64,-2.49
187.62,-0.05,15.83,16.15,0.08,0.02,0.14,0.16,1469.97,29.68,0.0,1490.57,-2.64
187.63,-0.18,15.75,16.19,0.09,0.03,0.11,0.24,1479.84,29.69,0.0,1490.38,-2.77
187.64,-0.3,15.73,16.22,0.09,0.04,0.06,0.31,1491.24,29.7,0.0,1490.14,-2.83
187.65,-0.41,15.81,16.23,0.09,0.03,-0.01,0.39,1500.85,29.7,0.0,1489.94,-2.78
187.66,-0.47,15.97,16.23,0.08,0.03,-0.07,0.45,1506.94,29.71,0.0,1489.84,-2.66
187.67,-0.46,16.19,16.22,0.06,0.02,-0.11,0.47,1509.24,29.7,0.0,1489.87,-2.5
187.68,-0.35,16.44,16.23,0.04,0.01,-0.13,0.44,1508.54,29.7,0.0,1490.01,-2.35
187.69,-0.2,16.68,16.24,0.03,-0.0,-0.13,0.36,1505.63,29.7,0.0,1490.23,-2.24
187.7,-0.06,16.85,16.27,0.02,-0.01,-0.11,0.29,1500.24,29.7,0.0,1490.44,-2.21
187.71,0.02,16.94,16.32,0.02,-0.01,-0.1,0.26,1492.28,29.7,0.0,1490.61,-2.26
187.72,0.02,16.93,16.36,0.02,-0.0,-0.09,0.27,1484.03,29.7,0.0,1490.72,-2.36
187.73,-0.03,16.8,16.41,0.03,0.0,-0.09,0.28,1479.72,29.7,0.0,1490.85,-2.5
187.74,-0.1,16.54,16.45,0.04,0.02,-0.1,0.27,1481.99,29.71,0.0,1491.04,-2.64
187.75,-0.19,16.24,16.48,0.06,0.03,-0.11,0.22,1489.57,29.72,0.0,1491.27,-2.76
187.76,-0.27,16.04,16.51,0.07,0.05,-0.09,0.16,1499.08,29.72,0.0,1491.45,-2.82
187.77,-0.36,16.05,16.55,0.09,0.06,-0.02,0.11,1507.52,29.72,0.0,1491.53,-2.81
187.78,-0.44,16.24,16.59,0.1,0.07,0.07,0.08,1512.96,29.71,0.0,1491.49,-2.74
187.79,-0.45,16.52,16.63,0.11,0.07,0.14,0.1,1514.36,29.7,0.0,1491.34,-2.62
187.8,-0.38,16.78,16.65,0.11,0.08,0.14,0.15,1511.9,29.7,0.0,1491.08,-2.48
187.81,-0.25,16.96,16.66,0.1,0.07,0.1,0.22,1506.6,29.7,0.0,1490.8,-2.35
187.82,-0.11,17.03,16.67,0.08,0.07,0.05,0.26,1499.03,29.7,0.0,1490.61,-2.26
187.83,-0.03,16.98,16.68,0.06,0.06,0.05,0.25,1489.7,29.7,0.0,1490.55,-2.25
187.84,-0.0,16.85,16.69,0.04,0.05,0.1,0.19,1481.02,29.7,0.0,1490.61,-2.31
187.85,-0.03,16.73,16.71,0.03,0.03,0.15,0.12,1477.02,29.7,0.0,1490.67,-2.42
187.86,-0.08,16.67,16.75,0.02,0.01,0.17,0.08,1480.0,29.69,0.0,1490.62,-2.57
187.87,-0.14,16.68,16.79,0.03,-0.01,0.16,0.07,1488.28,29.69,0.0,1490.51,-2.73
187.88,-0.21,16.72,16.83,0.04,-0.02,0.11,0.08,1498.12,29.68,0.0,1490.46,-2.85
187.89,-0.3,16.78,16.87,0.05,-0.03,0.02,0.11,1506.36,29.68,0.0,1490.58,-2.9
187.9,-0.38,16.85,16.9,0.06,-0.02,-0.06,0.14,1511.39,29.68,0.0,1490.85,-2.88
187.91,-0.42,16.96,16.93,0.07,-0.01,-0.12,0.19,1512.97,29.68,0.0,1491.16,-2.8
187.92,-0.38,17.12,16.95,0.08,0.01,-0.14,0.25,1511.85,29.68,0.0,1491.41,-2.66
187.93,-0.29,17.31,16.97,0.09,0.02,-0.11,0.33,1508.74,29.67,0.0,1491.56,-2.5
187.94,-0.19,17.44,16.98,0.09,0.03,-0.06,0.39,1503.32,29.67,0.0,1491.58,-2.37
187.95,-0.14,17.45,16.99,0.09,0.03,-0.01,0.42,1495.44,29.67,0.0,1491.48,-2.29
187.96,-0.14,17.36,17.0,0.08,0.03,0.02,0.42,1487.18,29.67,0.0,1491.3,-2.28
187.97,-0.16,17.22,17.01,0.06,0.02,0.02,0.4,1482.33,29.68,0.0,1491.05,-2.34
187.98,-0.19,17.08,17.03,0.04,0.02,0.01,0.35,1483.28,29.7,0.0,1490.74,-2.45
187.99,-0.21,16.97,17.04,0.03,0.01,-0.01,0.3,1489.0,29.71,0.0,1490.44,-2.59
188.0,-0.24,16.92,17.07,0.02,0.0,-0.01,0.24,1496.57,29.72,0.0,1490.26,-2.7
188.01,-0.29,16.92,17.09,0.02,-0.01,0.02,0.18,1503.39,29.73,0.0,1490.27,-2.75
188.02,-0.35,16.97,17.13,0.02,-0.01,0.08,0.12,1507.91,29.73,0.0,1490.43,-2.74
188.03,-0.38,17.04,17.16,0.04,-0.02,0.12,0.08,1509.6,29.72,0.0,1490.62,-2.69
188.04,-0.35,17.12,17.2,0.05,-0.01,0.11,0.04,1508.82,29.71,0.0,1490.75,-2.6
188.05,-0.29,17.19,17.23,0.06,-0.01,0.06,0.03,1506.02,29.7,0.0,1490.81,-2.5
188.06,-0.22,17.2,17.25,0.07,-0.0,0.03,0.06,1500.75,29.69,0.0,1490.84,-2.39
188.07,-0.18,17.14,17.26,0.08,0.0,0.03,0.12,1492.81,29.69,0.0,1490.9,-2.29
188.08,-0.17,17.04,17.26,0.08,0.0,0.08,0.21,1484.54,29.7,0.0,1491.0,-2.21
188.09,-0.17,16.98,17.27,0.09,-0.0,0.14,0.28,1480.35,29.7,0.0,1491.14,-2.2
188.1,-0.15,17.0,17.28,0.08,-0.0,0.17,0.29,1483.01,29.7,0.0,1491.27,-2.29
188.11,-0.13,17.09,17.3,0.07,-0.0,0.16,0.26,1491.01,29.7,0.0,1491.38,-2.44
188.12,-0.13,17.2,17.32,0.06,-0.01,0.13,0.22,1500.36,29.69,0.0,1491.42,-2.61
188.13,-0.18,17.29,17.33,0.05,-0.01,0.06,0.19,1507.65,29.68,0.0,1491.36,-2.78
188.14,-0.27,17.33,17.35,0.04,-0.01,0.0,0.18,1511.37,29.66,0.0,1491.28,-2.9
188.15,-0.33,17.32,17.36,0.03,-0.02,-0.03,0.2,1511.48,29.66,0.0,1491.29,-2.93
188.16,-0.34,17.27,17.39,0.03,-0.03,-0.03,0.22,1508.87,29.66,0.0,1491.49,-2.85
188.17,-0.3,17.2,17.42,0.03,-0.05,0.01,0.25,1504.51,29.66,0.0,1491.8,-2.69
188.18,-0.24,17.16,17.45,0.04,-0.06,0.05,0.25,1498.29,29.67,0.0,1492.01,-2.49
188.19,-0.19,17.17,17.48,0.05,-0.06,0.07,0.22,1490.13,29.67,0.0,1491.94,-2.31
188.2,-0.16,17.23,17.5,0.06,-0.05,0.06,0.18,1482.18,29.67,0.0,1491.66,-2.17
188.21,-0.15,17.31,17.51,0.07,-0.03,0.03,0.15,1478.6,29.67,0.0,1491.36,-2.11
188.22,-0.13,17.38,17.52,0.07,-0.01,-0.03,0.16,1481.92,29.67,0.0,1491.18,-2.14
188.23,-0.11,17.43,17.53,0.08,0.01,-0.09,0.22,1490.58,29.67,0.0,1491.18,-2.25
188.24,-0.13,17.48,17.55,0.08,0.03,-0.11,0.3,1500.84,29.67,0.0,1491.28,-2.41
188.25,-0.19,17.54,17.56,0.08,0.04,-0.09,0.38,1509.51,29.67,0.0,1491.41,-2.61
188.26,-0.27,17.61,17.58,0.07,0.05,-0.03,0.44,1514.74,29.67,0.0,1491.5,-2.79
188.27,-0.34,17.67,17.6,0.06,0.05,0.01,0.47,1515.69,29.66,0.0,1491.47,-2.88
188.28,-0.37,17.7,17.6,0.05,0.05,0.02,0.45,1512.75,29.66,0.0,1491.32,-2.85
188.29,-0.34,17.7,17.6,0.03,0.05,-0.01,0.41,1507.09,29.66,0.0,1491.07,-2.7
188.3,-0.29,17.67,17.61,0.02,0.04,-0.06,0.36,1499.3,29.66,0.0,1490.79,-2.52
188.31,-0.24,17.62,17.61,0.01,0.02,-0.11,0.34,1489.88,29.67,0.0,1490.51,-2.35
188.32,-0.19,17.56,17.63,0.01,-0.01,-0.14,0.34,1481.2,29.67,0.0,1490.32,-2.23
188.33,-0.14,17.52,17.65,0.02,-0.03,-0.14,0.35,1477.24,29.67,0.0,1490.31,-2.17
188.34,-0.08,17.51,17.69,0.04,-0.05,-0.12,0.36,1480.28,29.67,0.0,1490.56,-2.15
188.35,-0.02,17.53,17.72,0.06,-0.05,-0.07,0.36,1488.7,29.67,0.0,1490.96,-2.18
188.36,-0.01,17.58,17.75,0.07,-0.04,-0.04,0.36,1498.89,29.66,0.0,1491.25,-2.26
188.37,-0.06,17.65,17.77,0.09,-0.02,-0.03,0.36,1507.78,29.66,0.0,1491.28,-2.42
188.38,-0.17,17.71,17.78,0.09,0.0,-0.04,0.36,1513.46,29.65,0.0,1491.05,-2.6
188.39,-0.27,17.74,17.78,0.1,0.02,-0.06,0.35,1514.92,29.65,0.0,1490.71,-2.74
188.4,-0.33,17.73,17.79,0.09,0.04,-0.05,0.32,1512.43,29.65,0.0,1490.38,-2.79
188.41,-0.34,17.69,17.79,0.08,0.04,-0.03,0.27,1507.06,29.65,0.0,1490.14,-2.76
188.42,-0.3,17.68,17.79,0.07,0.04,-0.01,0.22,1499.37,29.65,0.0,1489.99,-2.65
188.43,-0.24,17.73,17.79,0.05,0.04,-0.02,0.2,1489.87,29.66,0.0,1489.92,-2.49
188.44,-0.17,17.83,17.78,0.03,0.03,-0.05,0.2,1481.0,29.66,0.0,1489.87,-2.33
188.45,-0.1,17.92,17.78,0.01,0.01,-0.07,0.2,1476.86,29.66,0.0,1489.8,-2.2
188.46,-0.02,17.95,17.81,0.01,-0.0,-0.08,0.18,1479.77,29.66,0.0,1489.67,-2.13
188.47,0.03,17.92,17.85,0.01,-0.02,-0.06,0.16,1488.07,29.65,0.0,1489.52,-2.11
188.48,0.04,17.84,17.89,0.02,-0.04,-0.03,0.13,1497.98,29.65,0.0,1489.45,-2.19
188.49,-0.02,17.75,17.94,0.03,-0.05,0.0,0.13,1506.32,29.65,0.0,1489.54,-2.34
188.5,-0.13,17.68,17.98,0.04,-0.06,0.04,0.14,1511.45,29.66,0.0,1489.76,-2.54
188.51,-0.24,17.63,18.01,0.06,-0.05,0.09,0.15,1513.12,29.67,0.0,1490.06,-2.73
188.52,-0.3,17.61,18.02,0.08,-0.04,0.18,0.14,1512.06,29.67,0.0,1490.38,-2.87
188.53,-0.32,17.63,18.02,0.1,-0.01,0.29,0.11,1508.87,29.67,0.0,1490.64,-2.94
188.54,-0.3,17.68,18.01,0.11,0.01,0.34,0.08,1502.92,29.67,0.0,1490.77,-2.92
188.55,-0.27,17.77,18.0,0.11,0.03,0.31,0.05,1493.86,29.66,0.0,1490.74,-2.82
188.56,-0.23,17.88,17.99,0.09,0.04,0.2,0.04,1484.17,29.66,0.0,1490.59,-2.67
188.57,-0.17,17.96,17.98,0.08,0.04,0.08,0.06,1478.52,29.66,0.0,1490.43,-2.52
188.58,-0.08,18.01,17.98,0.05,0.03,-0.02,0.1,1479.86,29.66,0.0,1490.35,-2.38
188.59,0.03,18.02,17.99,0.03,0.01,-0.06,0.16,1486.97,29.65,0.0,1490.36,-2.29
188.6,0.08,17.99,18.0,0.02,-0.01,-0.03,0.2,1496.25,29.65,0.0,1490.48,-2.26
188.61,0.04,17.93,18.03,0.02,-0.04,0.07,0.2,1504.49,29.65,0.0,1490.69,-2.27
188.62,-0.07,17.87,18.06,0.03,-0.06,0.21,0.17,1509.88,29.65,0.0,1490.91,-2.33
188.63,-0.19,17.84,18.09,0.04,-0.07,0.3,0.14,1511.99,29.66,0.0,1491.07,-2.45
188.64,-0.29,17.89,18.11,0.05,-0.07,0.31,0.13,1511.37,29.66,0.0,1491.11,-2.62
188.65,-0.33,17.98,18.13,0.06,-0.06,0.25,0.14,1508.65,29.67,0.0,1491.08,-2.81
188.66,-0.34,18.06,18.14,0.07,-0.04,0.16,0.16,1503.42,29.68,0.0,1491.11,-2.93
188.67,-0.32,18.11,18.14,0.08,-0.03,0.09,0.18,1495.52,29.68,0.0,1491.31,-2.95
188.68,-0.28,18.12,18.15,0.09,-0.01,0.05,0.18,1487.1,29.68,0.0,1491.6,-2.86
188.69,-0.22,18.14,18.16,0.09,0.0,0.04,0.16,1482.11,29.67,0.0,1491.82,-2.7
188.7,-0.12,18.22,18.17,0.09,0.02,0.04,0.12,1483.0,29.67,0.0,1491.81,-2.51
188.71,-0.02,18.33,18.18,0.09,0.03,0.04,0.08,1488.79,29.66,0.0,1491.59,-2.32
188.72,0.03,18.4,18.18,0.08,0.03,0.03,0.06,1496.58,29.66,0.0,1491.23,-2.2
188.73,-0.0,18.35,18.19,0.06,0.04,-0.0,0.05,1503.71,29.64,0.0,1490.82,-2.15
188.74,-0.1,18.2,18.18,0.04,0.04,-0.05,0.05,1508.57,29.63,0.0,1490.47,-2.18
188.75,-0.21,18.03,18.19,0.03,0.03,-0.1,0.06,1510.53,29.62,0.0,1490.28,-2.28
188.76,-0.31,17.89,18.2,0.01,0.02,-0.15,0.06,1509.9,29.63,0.0,1490.27,-2.45
188.77,-0.37,17.82,18.22,0.01,-0.0,-0.18,0.06,1507.17,29.64,0.0,1490.42,-2.64
188.78,-0.39,17.86,18.24,0.01,-0.02,-0.2,0.06,1502.0,29.65,0.0,1490.68,-2.77
188.79,-0.37,18.02,18.25,0.03,-0.03,-0.19,0.08,1494.31,29.66,0.0,1491.0,-2.79
188.8,-0.32,18.22,18.26,0.05,-0.04,-0.17,0.1,1486.22,29.66,0.0,1491.31,-2.73
188.81,-0.25,18.38,18.26,0.07,-0.04,-0.12,0.13,1481.55,29.66,0.0,1491.52,-2.6
188.82,-0.15,18.4,18.27,0.09,-0.03,-0.04,0.14,1482.68,29.66,0.0,1491.6,-2.45
188.83,-0.05,18.32,18.28,0.11,-0.03,0.05,0.16,1488.58,29.65,0.0,1491.56,-2.32
188.84,-0.0,18.22,18.29,0.12,-0.02,0.14,0.18,1496.33,29.65,0.0,1491.43,-2.23
188.85,-0.04,18.16,18.29,0.12,-0.01,0.2,0.24,1503.3,29.65,0.0,1491.26,-2.2
188.86,-0.14,18.17,18.29,0.12,-0.01,0.23,0.31,1507.9,29.65,0.0,1491.1,-2.23
188.87,-0.25,18.2,18.29,0.1,-0.0,0.22,0.38,1509.44,29.65,0.0,1490.94,-2.32
188.88,-0.35,18.2,18.28,0.08,-0.01,0.17,0.4,1508.2,29.65,0.0,1490.79,-2.49
188.89,-0.4,18.19,18.28,0.05,-0.01,0.1,0.39,1504.76,29.66,0.0,1490.65,-2.69
188.9,-0.41,18.18,18.29,0.03,-0.02,0.05,0.34,1498.9,29.67,0.0,1490.5,-2.86
188.91,-0.38,18.21,18.31,0.02,-0.04,0.01,0.25,1490.61,29.67,0.0,1490.34,-2.94
188.92,-0.32,18.27,18.33,0.01,-0.05,0.01,0.14,1482.24,29.67,0.0,1490.21,-2.93
188.93,-0.26,18.31,18.37,0.02,-0.06,0.02,0.04,1478.05,29.66,0.0,1490.21,-2.84
188.94,-0.19,18.31,18.43,0.03,-0.06,0.02,-0.04,1480.65,29.66,0.0,1490.43,-2.66
188.95,-0.14,18.27,18.48,0.05,-0.04,0.02,-0.09,1488.69,29.65,0.0,1490.77,-2.46
188.96,-0.12,18.22,18.53,0.07,-0.03,-0.0,-0.11,1498.65,29.65,0.0,1491.04,-2.27
188.97,-0.15,18.2,18.55,0.08,-0.0,-0.04,-0.09,1507.49,29.65,0.0,1491.1,-2.14
188.98,-0.21,18.21,18.55,0.1,0.02,-0.08,-0.05,1513.24,29.66,0.0,1490.98,-2.08
188.99,-0.28,18.19,18.52,0.1,0.03,-0.09,0.01,1514.82,29.66,0.0,1490.86,-2.13
189.0,-0.34,18.11,18.48,0.1,0.04,-0.03,0.07,1512.43,29.66,0.0,1490.88,-2.28
189.01,-0.37,18.0,18.44,0.09,0.04,0.07,0.12,1507.13,29.66,0.0,1491.05,-2.49
189.02,-0.38,17.93,18.41,0.07,0.03,0.17,0.16,1499.45,29.66,0.0,1491.28,-2.69
189.03,-0.36,17.95,18.39,0.06,0.02,0.23,0.18,1489.95,29.66,0.0,1491.47,-2.84
189.04,-0.33,18.05,18.4,0.04,0.0,0.24,0.18,1481.08,29.67,0.0,1491.56,-2.9
189.05,-0.29,18.19,18.42,0.03,-0.02,0.19,0.17,1476.95,29.68,0.0,1491.47,-2.87
189.06,-0.25,18.31,18.45,0.03,-0.03,0.1,0.13,1479.88,29.68,0.0,1491.18,-2.74
189.07,-0.21,18.41,18.47,0.02,-0.05,-0.01,0.09,1488.23,29.68,0.0,1490.8,-2.56
189.08,-0.2,18.49,18.48,0.03,-0.06,-0.11,0.06,1498.18,29.68,0.0,1490.55,-2.39
189.09,-0.23,18.56,18.49,0.04,-0.06,-0.18,0.04,1506.52,29.68,0.0,1490.57,-2.25
189.1,-0.27,18.61,18.49,0.06,-0.05,-0.22,0.04,1511.62,29.68,0.0,1490.83,-2.19
189.11,-0.31,18.64,18.5,0.08,-0.05,-0.22,0.06,1513.24,29.67,0.0,1491.17,-2.19
189.12,-0.34,18.63,18.52,0.1,-0.04,-0.19,0.11,1512.12,29.67,0.0,1491.48,-2.27
189.13,-0.36,18.59,18.55,0.12,-0.03,-0.13,0.17,1508.86,29.67,0.0,1491.67,-2.4
189.14,-0.33,18.52,18.57,0.13,-0.01,-0.08,0.21,1502.83,29.67,0.0,1491.73,-2.54
189.15,-0.27,18.45,18.58,0.12,-0.0,-0.06,0.21,1493.69,29.67,0.0,1491.69,-2.69
189.16,-0.19,18.39,18.58,0.1,0.01,-0.06,0.18,1483.91,29.67,0.0,1491.58,-2.82
189.17,-0.12,18.36,18.57,0.08,0.02,-0.08,0.13,1478.21,29.67,0.0,1491.43,-2.85
189.18,-0.09,18.38,18.55,0.06,0.02,-0.09,0.08,1479.54,29.67,0.0,1491.26,-2.77
189.19,-0.09,18.44,18.53,0.03,0.02,-0.1,0.05,1486.67,29.67,0.0,1491.08,-2.6
189.2,-0.12,18.5,18.52,0.02,0.01,-0.09,0.06,1496.02,29.67,0.0,1490.97,-2.4
189.21,-0.17,18.55,18.53,0.01,0.0,-0.08,0.13,1504.33,29.67,0.0,1490.94,-2.21
189.22,-0.22,18.58,18.56,0.02,-0.01,-0.05,0.21,1509.79,29.67,0.0,1490.98,-2.08
189.23,-0.26,18.58,18.59,0.03,-0.02,-0.03,0.26,1511.96,29.67,0.0,1491.01,-2.04
189.24,-0.29,18.53,18.61,0.04,-0.03,-0.01,0.24,1511.4,29.68,0.0,1490.98,-2.11
189.25,-0.31,18.47,18.63,0.05,-0.03,-0.0,0.17,1508.61,29.68,0.0,1490.91,-2.26
189.26,-0.3,18.43,18.64,0.06,-0.04,-0.02,0.08,1502.89,29.68,0.0,1490.81,-2.47
189.27,-0.26,18.42,18.65,0.08,-0.03,-0.05,0.03,1493.88,29.67,0.0,1490.73,-2.69
189.28,-0.21,18.44,18.66,0.09,-0.03,-0.09,0.02,1484.13,29.67,0.0,1490.68,-2.89
189.29,-0.16,18.42,18.67,0.1,-0.02,-0.12,0.03,1478.38,29.66,0.0,1490.7,-2.99
189.3,-0.13,18.33,18.67,0.1,-0.01,-0.12,0.05,1479.65,29.65,0.0,1490.8,-2.96
189.31,-0.11,18.18,18.66,0.09,-0.01,-0.11,0.07,1486.74,29.66,0.0,1490.93,-2.82
189.32,-0.12,18.05,18.65,0.08,-0.0,-0.07,0.11,1496.06,29.66,0.0,1491.03,-2.62
189.33,-0.13,17.99,18.64,0.06,0.0,-0.01,0.19,1504.36,29.66,0.0,1491.03,-2.42
189.34,-0.14,17.99,18.63,0.05,0.01,0.04,0.29,1509.82,29.66,0.0,1490.98,-2.25
189.35,-0.16,18.0,18.62,0.03,0.01,0.07,0.37,1511.99,29.66,0.0,1491.0,-2.15
189.36,-0.19,17.99,18.62,0.03,0.0,0.08,0.42,1511.44,29.66,0.0,1491.16,-2.15
189.37,-0.22,17.96,18.62,0.03,-0.0,0.06,0.42,1508.76,29.66,0.0,1491.41,-2.23
189.38,-0.23,18.0,18.63,0.04,-0.01,0.03,0.38,1503.52,29.66,0.0,1491.62,-2.35
189.39,-0.2,18.15,18.65,0.05,-0.02,0.0,0.33,1495.56,29.66,0.0,1491.67,-2.5
189.4,-0.16,18.4,18.68,0.06,-0.02,-0.02,0.27,1487.04,29.66,0.0,1491.56,-2.63
189.41,-0.11,18.7,18.7,0.07,-0.02,-0.04,0.2,1481.96,29.66,0.0,1491.37,-2.72
189.42,-0.08,19.01,18.72,0.08,-0.01,-0.07,0.14,1482.82,29.66,0.0,1491.18,-2.76
189.43,-0.07,19.25,18.73,0.09,-0.01,-0.1,0.08,1488.63,29.66,0.0,1491.06,-2.75
189.44,-0.07,19.34,18.72,0.1,-0.0,-0.12,0.04,1496.46,29.65,0.0,1491.02,-2.68
189.45,-0.05,19.24,18.7,0.1,0.0,-0.12,0.02,1503.66,29.65,0.0,1491.07,-2.57
189.46,-0.02,19.01,18.68,0.09,0.01,-0.12,0.02,1508.58,29.65,0.0,1491.15,-2.44
189.47,-0.02,18.8,18.66,0.08,0.0,-0.11,0.05,1510.59,29.65,0.0,1491.13,-2.33
189.48,-0.05,18.71,18.65,0.06,-0.0,-0.1,0.09,1509.98,29.66,0.0,1490.95,-2.26
189.49,-0.12,18.76,18.66,0.04,-0.01,-0.09,0.15,1508.08,29.66,0.0,1490.66,-2.23
189.5,-0.17,18.87,18.68,0.02,-0.02,-0.1,0.19,1506.82,29.67,0.0,1490.38,-2.24
189.51,-0.2,18.97,18.7,0.01,-0.02,-0.12,0.22,1507.51,29.67,0.0,1490.21,-2.3
189.52,-0.18,19.03,18.73,0.01,-0.03,-0.14,0.21,1509.94,29.68,0.0,1490.19,-2.38
189.53,-0.16,19.03,18.75,0.01,-0.03,-0.14,0.19,1513.05,29.68,0.0,1490.32,-2.48
189.54,-0.14,18.96,18.76,0.02,-0.04,-0.12,0.16,1515.79,29.68,0.0,1490.57,-2.58
189.55,-0.13,18.86,18.77,0.04,-0.04,-0.07,0.12,1517.76,29.68,0.0,1490.87,-2.67
189.56,-0.11,18.76,18.77,0.06,-0.04,-0.04,0.11,1519.25,29.68,0.0,1491.12,-2.7
189.57,-0.04,18.7,18.77,0.08,-0.03,-0.04,0.13,1520.73,29.68,0.0,1491.26,-2.66
189.58,0.05,18.68,18.77,0.1,-0.03,-0.06,0.17,1522.64,29.69,0.0,1491.28,-2.57
189.59,0.11,18.7,18.76,0.1,-0.02,-0.07,0.21,1525.85,29.7,0.0,1491.2,-2.46
189.6,0.09,18.75,18.76,0.1,-0.02,-0.04,0.24,1530.81,29.69,0.0,1491.03,-2.35
189.61,0.01,18.81,18.77,0.1,-0.01,0.01,0.24,1536.08,29.68,0.0,1490.82,-2.26
189.62,-0.1,18.89,18.78,0.08,0.0,0.05,0.23,1538.65,29.67,0.0,1490.58,-2.24
189.63,-0.2,18.98,18.78,0.07,0.01,0.05,0.21,1536.54,29.67,0.0,1490.3,-2.29
189.64,-0.27,19.05,18.79,0.06,0.02,0.01,0.19,1530.6,29.68,0.0,1490.03,-2.39
189.65,-0.28,19.06,18.79,0.05,0.02,-0.05,0.2,1523.08,29.69,0.0,1489.83,-2.52
189.66,-0.26,18.96,18.79,0.04,0.02,-0.12,0.24,1516.04,29.71,0.0,1489.71,-2.66
189.67,-0.19,18.79,18.79,0.03,0.0,-0.17,0.29,1510.71,29.72,0.0,1489.69,-2.79
189.68,-0.08,18.62,18.8,0.03,-0.01,-0.2,0.32,1507.32,29.73,0.0,1489.78,-2.85
189.69,0.07,18.49,18.81,0.03,-0.01,-0.21,0.29,1505.46,29.73,0.0,1489.96,-2.83
189.7,0.23,18.43,18.82,0.04,-0.01,-0.21,0.22,1503.92,29.74,0.0,1490.21,-2.75
189.71,0.32,18.46,18.84,0.05,-0.01,-0.19,0.13,1500.38,29.74,0.0,1490.51,-2.63
189.72,0.29,18.57,18.86,0.07,0.0,-0.14,0.06,1493.36,29.74,0.0,1490.84,-2.49
189.73,0.17,18.71,18.87,0.09,0.02,-0.09,0.03,1484.86,29.73,0.0,1491.14,-2.37
189.74,-0.0,18.85,18.89,0.1,0.03,-0.02,0.04,1479.56,29.73,0.0,1491.29,-2.3
189.75,-0.17,18.94,18.9,0.11,0.05,0.05,0.09,1480.7,29.73,0.0,1491.22,-2.28
189.76,-0.3,18.99,18.91,0.1,0.06,0.11,0.15,1487.36,29.73,0.0,1490.99,-2.33
189.77,-0.37,18.98,18.91,0.09,0.06,0.14,0.2,1496.21,29.72,0.0,1490.79,-2.44
189.78,-0.37,18.91,18.9,0.07,0.05,0.13,0.22,1504.14,29.73,0.0,1490.72,-2.6
189.79,-0.32,18.82,18.89,0.05,0.03,0.1,0.22,1509.41,29.73,0.0,1490.81,-2.78
189.8,-0.24,18.72,18.88,0.03,0.01,0.05,0.21,1511.55,29.73,0.0,1491.0,-2.9
189.81,-0.13,18.66,18.88,0.02,-0.01,0.02,0.19,1511.08,29.73,0.0,1491.21,-2.91
189.82,-0.03,18.62,18.89,0.02,-0.04,0.01,0.18,1508.43,29.73,0.0,1491.38,-2.83
189.83,0.04,18.64,18.91,0.02,-0.05,0.0,0.18,1502.83,29.73,0.0,1491.46,-2.69
189.84,0.04,18.7,18.94,0.03,-0.05,-0.01,0.18,1493.9,29.73,0.0,1491.43,-2.52
189.85,-0.01,18.8,18.98,0.04,-0.05,-0.02,0.18,1484.16,29.73,0.0,1491.35,-2.36
189.86,-0.09,18.91,19.01,0.05,-0.04,-0.04,0.19,1478.39,29.72,0.0,1491.3,-2.26
189.87,-0.18,19.03,19.02,0.07,-0.02,-0.06,0.22,1479.64,29.71,0.0,1491.34,-2.23
189.88,-0.26,19.12,19.0,0.09,-0.01,-0.07,0.25,1486.72,29.7,0.0,1491.45,-2.25
